frequency,amplitude
0.1,1.04858299594741
0.100927151463057,1.05341386695625
0.101862899024469,1.0583122064629
0.102807322383087,1.06327915111131
0.103760501976691,1.06831585904125
0.104722518988844,1.07342351023792
0.105693455355799,1.07860330687829
0.106673393773486,1.08385647367336
0.107662417704549,1.08918425820524
0.10866061138546,1.09458793125765
0.109668059833687,1.10006878713869
0.110684848854941,1.1056281439944
0.111711065050482,1.11126734411134
0.112746795824495,1.11698775420667
0.113792129391531,1.1227907657037
0.114847154784029,1.1286777949908
0.115911961859889,1.13465028366145
0.116986641310131,1.14070969873302
0.118071284666619,1.14685753284135
0.119165984309856,1.1530953044084
0.120270833476851,1.1594245577798
0.121385926269063,1.16584686332849
0.122511357660412,1.17236381752106
0.123647223505372,1.17897704294237
0.124793620547131,1.18568818827414
0.125950646425836,1.19249892822256
0.127118399686903,1.19941096338958
0.128296979789415,1.20642602008226
0.12948648711459,1.21354585005388
0.130687022974335,1.22077223016998
0.131898689619867,1.22810696199212
0.133121590250431,1.23555187127119
0.134355829022083,1.24310880734191
0.135601511056563,1.25077964240885
0.136858742450252,1.25856627071404
0.138127630283201,1.26647060757507
0.139408282628258,1.27449458828167
0.140700808560269,1.28264016683808
0.142005318165368,1.29090931453694
0.143321922550357,1.29930401834977
0.144650733852165,1.30782627911742
0.145991865247398,1.31647810952293
0.147345430961984,1.3252615318274
0.148711546280895,1.33417857534813
0.150090327557974,1.34323127365654
0.151481892225835,1.35242166147139
0.152886358805873,1.36175177122118
0.154303846918356,1.37122362924695
0.155734477292613,1.38083925161498
0.157178371777316,1.39060063950591
0.158635653350859,1.40050977414436
0.160106446131832,1.41056861123038
0.161590875389592,1.42077907483052
0.163089067554933,1.43114305068342
0.164601150230855,1.44166237887166
0.166127252203429,1.45233884580424
0.16766750345277,1.46317417545789
0.169222035164104,1.47417001981332
0.170790979738943,1.48532794841752
0.172374470806362,1.49664943700599
0.17397264323438,1.50813585510583
0.175585633141447,1.51978845253784
0.177213577908036,1.53160834472926
0.178856616188346,1.5435964967423
0.180514887922111,1.55575370591648
0.182188534346517,1.56808058301556
0.183877698008233,1.58057753176204
0.185582522775552,1.59324472663418
0.187303153850644,1.6060820887914
0.189039737781922,1.61908925998583
0.190792422476527,1.63226557430724
0.19256135721292,1.64561002759998
0.194346692653602,1.65912124437971
0.196148580857943,1.67279744206803
0.197967175295133,1.68663639235211
0.199802630857255,1.70063537946665
0.201655103872475,1.71479115518425
0.203524752118358,1.72909989029099
0.205411734835306,1.74355712231344
0.207316212740123,1.75815769925478
0.209238348039698,1.77289571908938
0.211178304444824,1.78776446475858
0.213136247184144,1.80275633440512
0.215112343018217,1.81786276658098
0.217106760253726,1.83307416016412
0.219119668757815,1.84837978872197
0.221151239972549,1.86376770906925
0.223201646929523,1.87922466378013
0.225271064264598,1.89473597743482
0.227359668232772,1.91028544640976
0.229467636723194,1.92585522205638
0.231595149274315,1.94142568716279
0.233742387089181,1.95697532565408
0.235909533050864,1.9724805855638
0.238096771738036,1.98791573540384
0.240304289440697,2.00325271417531
0.242532274176035,2.0184609754024
0.244780915704444,2.03350732573776
0.247050405545683,2.04835575888485
0.249340936995188,2.06296728581606
0.251652705140539,2.07729976253586
0.253985906878073,2.09130771695429
0.256340740929651,2.10494217679949
0.258717407859592,2.11815050091243
0.261116110091746,2.13087621674098
0.263537051926739,2.14305886738095
0.265980439559376,2.15463387210859
0.268446481096196,2.16553240500691
0.270935386573205,2.17568129701357
0.273447367973758,2.1850029675023
0.275982639246618,2.19341539235322
0.278541416324177,2.20083211635564
0.281123917140846,2.20716231871196
0.283730361651621,2.21231094134814
0.286360971850812,2.21617889066525
0.289015971790951,2.21866332425106
0.29169558760188,2.21965803487138
0.294400047510004,2.21905394472805
0.297129581857733,2.21673972344507
0.299884423123103,2.21260254345838
0.302664805939569,2.20652898636138
0.305470967115997,2.19840611321528
0.308303145656828,2.1881227107801
0.311161582782436,2.17557072396942
0.314046521949675,2.16064688249725
0.316958208872612,2.14325452657847
0.319896891543454,2.12330563261552
0.322862820253673,2.10072303499397
0.325856247615323,2.07544283440751
0.328877428582551,2.04741697654393
0.331926620473319,2.01661597751959
0.335004082991313,1.98303176421142
0.338110078248068,1.94668058865401
0.341244870785289,1.90760596598929
0.344408727597382,1.86588157504226
0.347601918154198,1.82161404932447
0.350824714423979,1.77494557381842
0.354077390896527,1.72605618875213
0.357360224606579,1.67516568495152
0.360673495157403,1.62253495528334
0.364017484744614,1.56846664216763
0.367392478180207,1.51330489153268
0.370798762916817,1.45743398942116
0.374236629072198,1.40127562158675
0.377706369453937,1.34528446566495
0.381208279584389,1.28994181250195
0.38474265772585,1.23574693778284
0.388309804905961,1.18320603351047
0.39191002494334,1.13281868941317
0.39554362447347,1.0850622065157
0.399210912974805,1.04037442313096
0.402912202795135,0.999136188463832
0.406647809178186,0.961655029794125
0.410418050290471,0.928151787429267
0.41422324724839,0.898751906207012
0.418063724145576,0.873482613358455
0.421939808080503,0.852276440529132
0.425851829184342,0.834980642080289
0.42980012064908,0.821371256618492
0.433785018755899,0.811170048488808
0.437806862903817,0.804062433494623
0.441865995638594,0.799714697807
0.445962762681909,0.797789239766819
0.450097512960805,0.797957062130956
0.454270598637405,0.799907207430508
0.45848237513891,0.803353198545784
0.462733201187869,0.808036799135782
0.467023438832733,0.81372955033
0.471353453478691,0.820232591057116
0.475723613918789,0.827375254182257
0.480134292365345,0.835012873328153
0.484585864481649,0.843024156574657
0.489078709413959,0.85130839911836
0.493613209823792,0.859782728290785
0.498189751920516,0.868379507198227
0.502808725494248,0.877043970103311
0.507470523949047,0.885732123291663
0.512175544336424,0.894408917908058
0.51692418738916,0.903046683742654
0.521716857555435,0.911623802831349
0.526553963033276,0.920123596853577
0.531435915805324,0.928533400935422
0.536363131673924,0.936843797279251
0.541336030296538,0.945047984090955
0.546355035221488,0.953141257919682
0.55142057392403,0.961120590345429
0.556533077842765,0.968984282695115
0.561692982416381,0.976731684999497
0.566900727120744,0.984362967656581
0.572156755506325,0.991878936224709
0.577461515235982,0.99928088143947
0.582815458123084,1.00657045795223
0.588219040169996,1.01374958646999
0.593672721606912,1.02082037493629
0.599176966931062,1.02778505520555
0.604732244946265,1.03464593231168
0.610339028802862,1.041405343973
0.615997796038017,1.04806562841225
0.621709028616383,1.05462909892703
0.627473212971158,1.06109802394113
0.633290840045512,1.06747461149649
0.6391624053344,1.07376099734314
0.645088408926769,1.07995923594454
0.651069355548146,1.08607129383125
0.657105754603627,1.09209904485425
0.663198120221267,1.09804426696317
0.669346971295866,1.10390864020882
0.675552831533164,1.1096937457242
0.681816229494448,1.1154010654845
0.688137698641567,1.12103198268405
0.69451777738237,1.12658778259885
0.700957009116562,1.1320696538291
0.707455942281988,1.1374786898354
0.71401513040134,1.14281589070094
0.720635132129305,1.1480821650644
0.727316511300146,1.15327833218046
0.734059836975721,1.15840512407366
0.740865683493956,1.1634631877594
0.747734630517759,1.16845308751181
0.754667263084389,1.17337530716351
0.761664171655289,1.17823025242645
0.768725952166373,1.18301825322648
0.775853206078783,1.18773956604701
0.783046540430118,1.19239437627936
0.790306567886135,1.1969828005795
0.797633906792927,1.20150488923196
0.805029181229598,1.20596062852296
0.812493021061405,1.21034994312596
0.820026061993413,1.21467269850307
0.827628945624635,1.21892870332653
0.835302319502678,1.22311771192462
0.843046837178897,1.22723942675666
0.850863158264058,1.23129350092167
0.858751948484517,1.235279540705
0.866713879738923,1.2391971081676
0.874749630155442,1.24304572378137
0.882859884149515,1.24682486911449
0.891045332482152,1.25053398956945
0.899306672318762,1.25417249717604
0.907644607288536,1.25773977344091
0.916059847544371,1.2612351722541
0.924553109823357,1.26465802285223
0.933125117507825,1.26800763283642
0.941776600686952,1.27128329124227
0.950508296218951,1.27448427165725
0.959320947793824,1.27760983537919
0.968215305996708,1.28065923460821
0.9771921283718,1.28363171566183
0.986252179486878,1.28652652220102
0.995396230998423,1.28934289845258
1.00462506171734,1.29208009241009
1.01393945767529,1.29473735899357
1.02334021219164,1.2973139631437
1.03282812594103,1.29980918282418
1.04240400702156,1.30222231190101
1.05206867102362,1.30455266286435
1.06182294109938,1.30679956935394
1.07166764803286,1.3089623884447
1.08160363031071,1.31104050264448
1.09163173419361,1.31303332155092
1.10175281378839,1.31494028310954
1.1119677311207,1.31676085440951
1.12227735620851,1.31849453194898
1.13268256713615,1.32014084129596
1.14318425012915,1.32169933606617
1.15378329962966,1.32316959613371
1.16448061837269,1.32455122498689
1.17527711746295,1.32584384613625
1.18617371645248,1.32704709847951
1.19717134341897,1.32816063052515
1.20827093504478,1.32918409337526
1.21947343669674,1.33011713236787
1.23077980250667,1.33095937728124
1.24219099545262,1.33171043100542
1.25370798744092,1.33236985659263
1.26533175938894,1.33293716260564
1.27706330130864,1.33341178669506
1.28890361239089,1.33379307734949
1.30085370109057,1.33408027378066
1.31291458521247,1.33427248392614
1.32508729199795,1.33436866057642
1.3373728582125,1.33436757566205
1.34977233023394,1.33426779276794
1.36228676414165,1.33406763797756
1.37491722580642,1.33376516918913
1.38766479098131,1.33335814408702
1.40053054539322,1.33284398699689
1.4135155848354,1.33221975489802
1.42662101526074,1.3314821029146
1.43984795287601,1.33062724965325
1.4531975242369,1.32965094280143
1.46667086634397,1.32854842544298
1.48026912673951,1.32731440358863
1.49399346360526,1.32594301545297
1.50784504586105,1.32442780303832
1.52182505326439,1.32276168660822
1.5359346765109,1.32093694264502
1.55017511733577,1.3189451858917
1.5645475886161,1.31677735607068
1.57905331447417,1.3144237098585
1.59369353038177,1.31187381867105
1.60846948326536,1.30911657277115
1.62338243161228,1.30614019218238
1.63843364557798,1.30293224482542
1.65362440709418,1.29947967224548
1.66895600997802,1.29576882323605
1.68442976004232,1.29178549559375
1.70004697520672,1.2875149861778
1.71580898561,1.28294214937624
1.73171713372335,1.27805146401734
1.74777277446468,1.27282710870103
1.76397727531404,1.26725304546593
1.78033201643011,1.26131311165354
1.79683839076772,1.2549911197805
1.8134978041965,1.2482709651854
1.83031167562061,1.24113674117572
1.84728143709963,1.2335728613631
1.86440853397049,1.22556418884093
1.88169442497056,1.21709617182544
1.89914058236193,1.20815498534717
1.91674849205681,1.19872767854592
1.93451965374405,1.18880232708317
1.95245558101686,1.17836819014316
1.9705578015018,1.16741587144407
1.98882785698881,1.15593748362347
2.00726730356257,1.14392681529502
2.02587771173502,1.13137949999656
2.04466066657912,1.1182931861617
2.06361776786386,1.10466770714486
2.08275063019052,1.09050525021787
2.10206088313016,1.07581052332745
2.12155017136245,1.06059091826192
2.14122015481573,1.04485666871984
2.16107250880838,1.02862100160136
2.18110892419152,1.0119002796574
2.20133110749303,0.994714133429321
2.22174078106288,0.977085580193843
2.24233968321985,0.959041127395432
2.26312956839953,0.940610857800663
2.28411220730382,0.921828493348781
2.30528938705171,0.902731434404378
2.32666291133146,0.883360770845012
2.34823460055428,0.863761261148677
2.37000629200933,0.843981275395712
2.39197984002024,0.824072697882465
2.41415711610302,0.804090784885637
2.43654000912546,0.784093973044061
2.45913042546804,0.764143633879162
2.48193028918625,0.744303770200549
2.5049415421745,0.724640650592447
2.5281661443315,0.705222378907305
2.55160607372718,0.686118396763243
2.5752633267712,0.667398918503368
2.59913991838293,0.649134299968505
2.62323788216312,0.631394344772318
2.64755927056707,0.61424755452933
2.67210615507943,0.597760332602642
2.69688062639069,0.581996154283248
2.72188479457518,0.567014719701844
2.74712078927081,0.552871108964115
2.77259075986048,0.539614961709841
2.79829687565512,0.527289705216597
2.82424132607843,0.515931856025698
2.85042632085344,0.505570419629249
2.87685409019059,0.49622641087922
2.90352688497781,0.487912514497475
2.93044697697214,0.480632900451977
2.95761665899325,0.474383203362285
2.98503824511873,0.469150668831636
3.01271407088116,0.464914463126972
3.04064649346707,0.461646136403386
3.06883789191764,0.459310224074109
3.09729066733141,0.45786496628773
3.1260072430687,0.457263121995597
3.15499006495809,0.457452851868499
3.18424160150465,0.458378643349563
3.21376434410028,0.45998225132977
3.24356080723581,0.462203629176636
3.27363352871525,0.464981826974739
3.30398506987186,0.468255836678631
3.33461801578636,0.471965367256581
3.36553497550709,0.476051536636803
3.39673858227221,0.480457471175794
3.42823149373397,0.485128807270832
3.46001639218511,0.490014093465457
3.49209598478727,0.495065094791475
3.52447300380158,0.500237004026768
3.55715020682138,0.505488566930459
3.59013037700707,0.510782130295044
3.62341632332315,0.516083622818628
3.65701088077749,0.521362479380426
3.69091691066278,0.526591519361347
3.72513730080021,0.531746789274413
3.75967496578547,0.536807379254982
3.79453284723694,0.541755222007876
3.82971391404628,0.54657488171326
3.86522116263126,0.551253339236758
3.90105761719099,0.555779778841027
3.93722632996348,0.560145380506416
3.97373038148561,0.564343120973076
4.0105728808555,0.56836758573766
4.04775696599732,0.572214793484397
4.08528580392856,0.5758820338005
4.12316259102975,0.579367718522474
4.16139055331671,0.582671246653687
4.1999729467153,0.5857928825011
4.23891305733878,0.588733646450846
4.27821420176762,0.591495217659324
4.31787972733202,0.594079847839237
4.35791301239703,0.596490285269232
4.39831746665022,0.598729708145187
4.43909653139217,0.600801666400082
4.48025367982949,0.602710031147208
4.5217924173707,0.604458950943534
4.56371628192476,0.606052814123613
4.6060288442024,0.607496216507968
4.64873370802026,0.608793933837856
4.6918345106078,0.609950898360161
4.73533492291712,0.610972179023591
4.7792386499356,0.611862964811126
4.82354943100147,0.612628550774698
4.86827104012228,0.613274326385346
4.91340728629636,0.613805765851863
4.95896201383721,0.614228420097605
5.00493910270095,0.614547910118326
5.05134246881676,0.614769921471268
5.09817606442043,0.61490019967808
5.14544387839093,0.614944546334601
5.19314993659021,0.614908815755805
5.24129830220606,0.614798911989581
5.28989307609815,0.614620786054089
5.33893839714735,0.61438043326483
5.38843844260822,0.614083890529101
5.4383974284648,0.613737233495073
5.48881960978967,0.613346573451225
5.5397092811064,0.612918053878987
5.59107077675529,0.612457846567798
5.64290847126254,0.611972147207518
5.69522677971282,0.611467170378107
5.74803015812535,0.610949143861533
5.80132310383338,0.610424302205518
5.85511015586724,0.609898879473739
5.90939589534097,0.609379101122287
5.96418494584246,0.608871174948019
6.01948197382727,0.608381281060944
6.07529168901607,0.607915560840224
6.13161884479577,0.607480104842022
6.18846823862438,0.607080939637366
6.24584471243961,0.606724013569452
6.30375315307128,0.606415181433047
6.36219849265749,0.606160188093214
6.42118570906476,0.605964651077068
6.48071982631197,0.605834042190757
6.54080591499825,0.605773668233574
6.60144909273489,0.60578865090284
6.66265452458115,0.605883906006029
6.72442742348425,0.606064122120412
6.7867730507233,0.606333738864933
6.84969671635744,0.606696924973489
6.91320377967813,0.60715755638244
6.97729964966553,0.607719194567601
7.04198978544929,0.608385065386029
7.10727969677342,0.609158038694947
7.17317494446561,0.610040609032981
7.23968114091087,0.611034877657177
7.3068039505295,0.612142536231025
7.37454909025955,0.613364852454794
7.44292233004376,0.614702657918065
7.51192949332096,0.616156338435384
7.58157645752211,0.61772582709944
7.65186915457082,0.61941060025267
7.72281357138864,0.621209676537212
7.79441575040495,0.623121619136435
7.86668179007158,0.625144541269446
7.93961784538228,0.62727611494452
8.01323012839689,0.62951358292004
8.08752490877045,0.631853773763807
8.16250851428723,0.634293119845516
8.2381873313996,0.636827678044445
8.31456780577206,0.639453152906756
8.39165644283016,0.64216492194571
8.46945980831459,0.644958062744908
8.54798452884041,0.647827381499953
8.62723729246145,0.650767442618861
8.70722484923992,0.653772598995387
8.78795401182132,0.656837022573065
8.86943165601471,0.65995473482948
8.9516647213783,0.663119636830311
9.03466021181053,0.666325538529088
9.11842519614657,0.66956618702069
9.20296680876041,0.672835293492782
9.28829225017249,0.676126558658274
9.37440878766299,0.679433696492262
9.46132375589077,0.682750456137531
9.54904455751808,0.686070641882163
9.63757866384108,0.689388131150692
9.72693361542617,0.692696890485226
9.81711702275219,0.69599098952492
9.90813656685867,0.699264613020266
9.99999999999999,0.702512070943162
