frequency,amplitude
0.1,0.996353879061921
0.100927151463057,1.00054510571415
0.101862899024469,1.00479490797062
0.102807322383087,1.00910429948134
0.103760501976691,1.01347431501912
0.104722518988844,1.01790601095854
0.105693455355799,1.022400465764
0.106673393773486,1.02695878048702
0.107662417704549,1.03158207927238
0.10866061138546,1.0362715098733
0.109668059833687,1.04102824417523
0.110684848854941,1.04585347872823
0.111711065050482,1.0507484352875
0.112746795824495,1.05571436136205
0.113792129391531,1.06075253077076
0.114847154784029,1.06586424420579
0.115911961859889,1.07105082980262
0.116986641310131,1.07631364371627
0.118071284666619,1.08165407070301
0.119165984309856,1.08707352470689
0.120270833476851,1.09257344945027
0.121385926269063,1.09815531902731
0.122511357660412,1.1038206384996
0.123647223505372,1.10957094449256
0.124793620547131,1.1154078057914
0.125950646425836,1.12133282393517
0.127118399686903,1.12734763380732
0.128296979789415,1.13345390422087
0.12948648711459,1.13965333849628
0.130687022974335,1.14594767502975
0.131898689619867,1.15233868784953
0.133121590250431,1.15882818715755
0.134355829022083,1.16541801985325
0.135601511056563,1.1721100700365
0.136858742450252,1.1789062594858
0.138127630283201,1.18580854810787
0.139408282628258,1.1928189343542
0.140700808560269,1.19993945559964
0.142005318165368,1.20717218847788
0.143321922550357,1.21451924916783
0.144650733852165,1.22198279362456
0.145991865247398,1.22956501774788
0.147345430961984,1.23726815748068
0.148711546280895,1.24509448882888
0.150090327557974,1.25304632779349
0.151481892225835,1.26112603020497
0.152886358805873,1.26933599144872
0.154303846918356,1.27767864606974
0.155734477292613,1.28615646724324
0.157178371777316,1.29477196609684
0.158635653350859,1.30352769086876
0.160106446131832,1.31242622588472
0.161590875389592,1.32147019033494
0.163089067554933,1.33066223683087
0.164601150230855,1.34000504971932
0.166127252203429,1.34950134312975
0.16766750345277,1.35915385872838
0.169222035164104,1.36896536315016
0.170790979738943,1.37893864507737
0.172374470806362,1.38907651193046
0.17397264323438,1.39938178613418
0.175585633141447,1.40985730091831
0.177213577908036,1.4205058956099
0.178856616188346,1.43133041036318
0.180514887922111,1.44233368029008
0.182188534346517,1.45351852891457
0.183877698008233,1.46488776090419
0.185582522775552,1.47644415400619
0.187303153850644,1.48819045011649
0.189039737781922,1.50012934540269
0.190792422476527,1.51226347939585
0.19256135721292,1.52459542295835
0.194346692653602,1.53712766502747
0.196148580857943,1.54986259802617
0.197967175295133,1.56280250182348
0.199802630857255,1.57594952611743
0.201655103872475,1.58930567110329
0.203524752118358,1.60287276627892
0.205411734835306,1.61665244722741
0.207316212740123,1.63064613020511
0.209238348039698,1.64485498434963
0.211178304444824,1.65927990130905
0.213136247184144,1.67392146207887
0.215112343018217,1.688779900818
0.217106760253726,1.70385506539937
0.219119668757815,1.71914637443429
0.221151239972549,1.73465277049273
0.223201646929523,1.75037266922462
0.225271064264598,1.76630390406992
0.227359668232772,1.78244366622744
0.229467636723194,1.79878843953638
0.231595149274315,1.815333929907
0.233742387089181,1.83207498892292
0.235909533050864,1.84900553122341
0.238096771738036,1.86611844526307
0.240304289440697,1.88340549703841
0.242532274176035,1.90085722636704
0.244780915704444,1.9184628353062
0.247050405545683,1.93621006830601
0.249340936995188,1.95408508370801
0.251652705140539,1.97207231622651
0.253985906878073,1.99015433008833
0.256340740929651,2.00831166255981
0.258717407859592,2.02652265766088
0.261116110091746,2.0447632899575
0.263537051926739,2.06300697844173
0.265980439559376,2.08122439065308
0.268446481096196,2.09938323737646
0.270935386573205,2.11744805847011
0.273447367973758,2.13538000064299
0.275982639246618,2.15313658831615
0.278541416324177,2.17067148907895
0.281123917140846,2.18793427569071
0.283730361651621,2.20487018709254
0.286360971850812,2.22141989148856
0.289015971790951,2.23751925523547
0.29169558760188,2.25309912205577
0.294400047510004,2.26808510796059
0.297129581857733,2.28239741824197
0.299884423123103,2.29595069396639
0.302664805939569,2.30865389657164
0.305470967115997,2.32041024042318
0.308303145656828,2.33111718451319
0.311161582782436,2.3406664958573
0.314046521949675,2.34894439852943
0.316958208872612,2.3558318236263
0.319896891543454,2.361204776715
0.322862820253673,2.36493484041208
0.325856247615323,2.36688983058576
0.328877428582551,2.36693462515834
0.331926620473319,2.36493218449331
0.335004082991313,2.36074478174879
0.338110078248068,2.35423546022366
0.341244870785289,2.34526973246635
0.344408727597382,2.33371753261815
0.347601918154198,2.31945542899207
0.350824714423979,2.30236909813874
0.354077390896527,2.28235605455958
0.357360224606579,2.25932862177386
0.360673495157403,2.23321712067674
0.364017484744614,2.20397324015146
0.367392478180207,2.17157354289651
0.370798762916817,2.13602304662183
0.374236629072198,2.09735880741147
0.377706369453937,2.05565341836534
0.381208279584389,2.01101832276145
0.38474265772585,1.9636068269067
0.388309804905961,1.91361668331099
0.39191002494334,1.86129209931157
0.39554362447347,1.80692500901936
0.399210912974805,1.75085542664106
0.402912202795135,1.69347067635996
0.406647809178186,1.63520326867822
0.410418050290471,1.57652716833763
0.41422324724839,1.51795218142665
0.418063724145576,1.46001619135081
0.421939808080503,1.40327501389634
0.425851829184342,1.34828974517526
0.42980012064908,1.29561166817727
0.433785018755899,1.24576507989477
0.437806862903817,1.19922879274977
0.441865995638594,1.15641750192029
0.445962762681909,1.11766459759132
0.450097512960805,1.08320820894909
0.454270598637405,1.05318217430233
0.45848237513891,1.02761318360608
0.462733201187869,1.00642458928359
0.467023438832733,0.989446489374564
0.471353453478691,0.976430867871653
0.475723613918789,0.967070016582445
0.480134292365345,0.961016254767964
0.484585864481649,0.957901093418248
0.489078709413959,0.957352368672644
0.493613209823792,0.95900837206669
0.498189751920516,0.962528522132702
0.502808725494248,0.967600570688698
0.507470523949047,0.973944671243623
0.512175544336424,0.981314841293396
0.51692418738916,0.989498434490244
0.521716857555435,0.998314228234755
0.526553963033276,1.00760965937273
0.531435915805324,1.01725763638582
0.536363131673924,1.02715324536768
0.541336030296538,1.03721056544391
0.546355035221488,1.04735972545024
0.55142057392403,1.05754427006016
0.556533077842765,1.06771885875103
0.561692982416381,1.07784729185707
0.566900727120744,1.0879008407375
0.572156755506325,1.09785685038271
0.577461515235982,1.1076975797343
0.582815458123084,1.11740924546633
0.588219040169996,1.12698123743313
0.593672721606912,1.13640547740662
0.599176966931062,1.14567589644967
0.604732244946265,1.15478800991685
0.610339028802862,1.16373857242807
0.615997796038017,1.17252529813768
0.621709028616383,1.18114663418452
0.627473212971158,1.18960157738587
0.633290840045512,1.19788952605697
0.6391624053344,1.20601016034854
0.645088408926769,1.21396334571947
0.651069355548146,1.22174905519971
0.657105754603627,1.22936730689701
0.663198120221267,1.23681811389185
0.669346971295866,1.24410144420198
0.675552831533164,1.25121718893878
0.681816229494448,1.25816513713812
0.688137698641567,1.2649449560386
0.69451777738237,1.27155617581209
0.700957009116562,1.27799817794542
0.707455942281988,1.28427018662551
0.71401513040134,1.2903712626071
0.720635132129305,1.29630029914438
0.727316511300146,1.30205601965242
0.734059836975721,1.30763697683238
0.740865683493956,1.31304155305116
0.747734630517759,1.31826796181245
0.754667263084389,1.32331425019433
0.761664171655289,1.32817830216012
0.768725952166373,1.33285784267568
0.775853206078783,1.33735044258833
0.783046540430118,1.34165352424064
0.790306567886135,1.34576436780819
0.797633906792927,1.3496801183634
0.805029181229598,1.3533977936783
0.812493021061405,1.35691429278928
0.820026061993413,1.36022640535402
0.827628945624635,1.36333082183852
0.835302319502678,1.36622414457749
0.843046837178897,1.36890289975641
0.850863158264058,1.37136355036775
0.858751948484517,1.37360251019709
0.866713879738923,1.37561615889734
0.874749630155442,1.37740085821111
0.882859884149515,1.37895296940226
0.891045332482152,1.38026887195763
0.899306672318762,1.38134498361945
0.907644607288536,1.38217778180652
0.916059847544371,1.38276382648038
0.924553109823357,1.3830997845074
0.933125117507825,1.38318245556318
0.941776600686952,1.38300879961804
0.950508296218951,1.38257596603391
0.959320947793824,1.38188132429217
0.968215305996708,1.38092249635944
0.9771921283718,1.37969739068259
0.986252179486878,1.37820423778711
0.995396230998423,1.37644162743184
1.00462506171734,1.37440854724958
1.01393945767529,1.37210442277481
1.02334021219164,1.36952915873021
1.03282812594103,1.36668318140687
1.04240400702156,1.36356748193468
1.05206867102362,1.36018366019455
1.06182294109938,1.35653396907637
1.07166764803286,1.35262135873139
1.08160363031071,1.34844952041043
1.09163173419361,1.34402292941529
1.10175281378839,1.33934688662245
1.1119677311207,1.33442755796646
1.12227735620851,1.32927201119456
1.13268256713615,1.32388824912569
1.14318425012915,1.31828523856859
1.15378329962966,1.31247293397483
1.16448061837269,1.30646229482708
1.17527711746295,1.30026529569394
1.18617371645248,1.29389492782219
1.19717134341897,1.28736519109042
1.20827093504478,1.28069107511932
1.21947343669674,1.27388852832863
1.23077980250667,1.26697441375483
1.24219099545262,1.25996645050271
1.25370798744092,1.25288313980543
1.26533175938894,1.24574367481734
1.27706330130864,1.23856783346662
1.28890361239089,1.23137585395633
1.30085370109057,1.22418829282592
1.31291458521247,1.21702586586891
1.32508729199795,1.20990927264743
1.3373728582125,1.20285900584096
1.34977233023394,1.19589514720664
1.36228676414165,1.18903715249551
1.37491722580642,1.18230362824422
1.38766479098131,1.17571210391863
1.40053054539322,1.16927880339756
1.4135155848354,1.163018420221
1.42662101526074,1.15694390135368
1.43984795287601,1.1510662444035
1.4531975242369,1.14539431325818
1.46667086634397,1.13993467694276
1.48026912673951,1.13469147614291
1.49399346360526,1.12966632128832
1.50784504586105,1.12485822535543
1.52182505326439,1.12026357365669
1.5359346765109,1.11587613187134
1.55017511733577,1.11168709248679
1.5645475886161,1.1076851587121
1.57905331447417,1.10385666385294
1.59369353038177,1.10018572315668
1.60846948326536,1.0966544142903
1.62338243161228,1.09324298194667
1.63843364557798,1.08993006161284
1.65362440709418,1.08669291728707
1.66895600997802,1.08350768790191
1.68442976004232,1.08034963738345
1.70004697520672,1.07719340362678
1.71580898561,1.07401324216267
1.73171713372335,1.07078326088284
1.74777277446468,1.06747764287768
1.76397727531404,1.06407085510012
1.78033201643011,1.06053784128064
1.79683839076772,1.05685419816743
1.8134978041965,1.05299633471842
1.83031167562061,1.04894161442644
1.84728143709963,1.04466848135062
1.86440853397049,1.0401565707709
1.88169442497056,1.03538680562715
1.89914058236193,1.03034148006282
1.91674849205681,1.02500433147991
1.93451965374405,1.01936060253097
1.95245558101686,1.01339709443858
1.9705578015018,1.00710221295313
1.98882785698881,1.00046600814515
2.00726730356257,0.993480209089072
2.02587771173502,0.986138254338704
2.04466066657912,0.978435318927281
2.06361776786386,0.970368338453398
2.08275063019052,0.961936030641109
2.10206088313016,0.953138914593036
2.12155017136245,0.943979327790462
2.14122015481573,0.934461440736833
2.16107250880838,0.924591268990745
2.18110892419152,0.914376682193504
2.20133110749303,0.90382740956382
2.22174078106288,0.892955041209101
2.24233968321985,0.881773024489358
2.26312956839953,0.870296654566691
2.28411220730382,0.858543058180843
2.30528938705171,0.846531169610805
2.32666291133146,0.834281697716548
2.34823460055428,0.82181708290351
2.37000629200933,0.809161442821334
2.39197984002024,0.796340505598204
2.41415711610302,0.783381529430271
2.43654000912546,0.770313207393766
2.45913042546804,0.757165556434992
2.48193028918625,0.74396978962325
2.5049415421745,0.730758170933158
2.5281661443315,0.717563852059478
2.55160607372718,0.70442069106812
2.5752633267712,0.691363053052493
2.59913991838293,0.678425593398925
2.62323788216312,0.665643024767199
2.64755927056707,0.653049869454769
2.67210615507943,0.640680199428927
2.69688062639069,0.62856736695917
2.72188479457518,0.61674372944272
2.74712078927081,0.605240372656747
2.77259075986048,0.594086837257146
2.79829687565512,0.583310853834075
2.82424132607843,0.57293809218617
2.85042632085344,0.562991930646697
2.87685409019059,0.553493251247284
2.90352688497781,0.544460266210457
2.93044697697214,0.535908380707279
2.95761665899325,0.527850095995765
2.98503824511873,0.520294955996768
3.01271407088116,0.513249539108073
3.04064649346707,0.506717495639756
3.06883789191764,0.500699629790264
3.09729066733141,0.495194023602199
3.1260072430687,0.490196198971442
3.15499006495809,0.485699312574767
3.18424160150465,0.48169437762194
3.21376434410028,0.478170505668036
3.24356080723581,0.475115161363007
3.27363352871525,0.472514422990547
3.30398506987186,0.470353241920945
3.33461801578636,0.468615694650523
3.36553497550709,0.467285221865488
3.39673858227221,0.466344849893421
3.42823149373397,0.465777390926672
3.46001639218511,0.465565619457464
3.49209598478727,0.465692423399493
3.52447300380158,0.466140929338813
3.55715020682138,0.466894602223372
3.59013037700707,0.467937320542136
3.62341632332315,0.469253428648963
3.65701088077749,0.470827768350368
3.69091691066278,0.472645692204928
3.72513730080021,0.474693061185754
3.75967496578547,0.476956229450254
3.79453284723694,0.479422018959445
3.82971391404628,0.482077686609061
3.86522116263126,0.48491088639093
3.90105761719099,0.487909628912092
3.93722632996348,0.491062240371227
3.97373038148561,0.49435732283904
4.0105728808555,0.497783717419838
4.04775696599732,0.501330471592682
4.08528580392856,0.504986811749026
4.12316259102975,0.508742121664288
4.16139055331671,0.512585927369085
4.1999729467153,0.516507888625612
4.23891305733878,0.520497796971339
4.27821420176762,0.524545580069236
4.31787972733202,0.528641311906262
4.35791301239703,0.532775228213078
4.39831746665022,0.536937746341296
4.43909653139217,0.541119488733467
4.48025367982949,0.54531130905352
4.5217924173707,0.549504320018845
4.56371628192476,0.553689921979074
4.6060288442024,0.557859831323382
4.64873370802026,0.562006107870725
4.6918345106078,0.566121180483593
4.73533492291712,0.570197870257198
4.7792386499356,0.574229410761808
4.82354943100147,0.578209464940804
4.86827104012228,0.582132138397694
4.91340728629636,0.585991988934573
4.95896201383721,0.589784032316049
5.00493910270095,0.59350374433827
5.05134246881676,0.597147059373718
5.09817606442043,0.600710365632411
5.14544387839093,0.604190497437148
5.19314993659021,0.607584724850205
5.24129830220606,0.610890741011658
5.28989307609815,0.614106647559938
5.33893839714735,0.61723093850265
5.38843844260822,0.620262482893203
5.4383974284648,0.623200506648557
5.48881960978967,0.626044573816189
5.5397092811064,0.628794567570233
5.59107077675529,0.631450671179853
5.64290847126254,0.634013349163352
5.69522677971282,0.63648332880511
5.74803015812535,0.638861582181676
5.80132310383338,0.641149308809562
5.85511015586724,0.643347919005467
5.90939589534097,0.645459018015116
5.96418494584246,0.64748439095229
6.01948197382727,0.649425988564011
6.07529168901607,0.651285913823059
6.13161884479577,0.653066409333344
6.18846823862438,0.654769845521558
6.24584471243961,0.656398709578261
6.30375315307128,0.65795559510335
6.36219849265749,0.659443192404383
6.42118570906476,0.660864279391328
6.48071982631197,0.662221713007464
6.54080591499825,0.663518421133829
6.60144909273489,0.664757394902695
6.66265452458115,0.665941681354932
6.72442742348425,0.667074376375711
6.7867730507233,0.668158617843428
6.84969671635744,0.669197578927506
6.91320377967813,0.670194461471869
6.97729964966553,0.671152489402462
7.04198978544929,0.672074902099126
7.10727969677342,0.672964947674203
7.17317494446561,0.673825876102988
7.23968114091087,0.674660932153931
7.3068039505295,0.675473348069894
7.37454909025955,0.676266335955571
7.44292233004376,0.677043079830389
7.51192949332096,0.677806727311252
7.58157645752211,0.678560380894819
7.65186915457082,0.679307088815462
7.72281357138864,0.680049835461808
7.79441575040495,0.680791531342847
7.86668179007158,0.68153500260312
7.93961784538228,0.682282980096158
8.01323012839689,0.683038088035897
8.08752490877045,0.683802832256995
8.16250851428723,0.684579588127321
8.2381873313996,0.685370588168622
8.31456780577206,0.686177909454859
8.39165644283016,0.687003460871368
8.46945980831459,0.687848970331988
8.54798452884041,0.688715972064805
8.62723729246145,0.689605794090388
8.70722484923992,0.690519546028294
8.78795401182132,0.691458107378528
8.86943165601471,0.692422116433326
8.9516647213783,0.693411959981027
9.03466021181053,0.694427763967568
9.11842519614657,0.695469385281295
9.20296680876041,0.696536404823626
9.28829225017249,0.69762812202067
9.37440878766299,0.698743550919631
9.46132375589077,0.699881417998141
9.54904455751808,0.701040161794883
9.63757866384108,0.702217934446331
9.72693361542617,0.703412605187401
9.81711702275219,0.704621765843808
9.90813656685867,0.705842738312007
9.99999999999999,0.707072583989331
