frequency,amplitude
0.1,1.2000500621078158
0.1010422466576582,1.2025620000952473
0.10209535609627042,1.207376533835816
0.10315944153280802,1.2123175384828044
0.10423461736424258,1.2173888551317869
0.10532099917984424,1.2225944617421771
0.10641870377360839,1.2279384786082452
0.107527849156812,1.2334251740450948
0.10864855457070062,1.2390589702943562
0.10978094049930771,1.2448444496536675
0.11092512868240749,1.2507863608332483
0.11208124212860293,1.2568896255418356
0.11324940512855011,1.2631593453030758
0.11442974326832023,1.2696008085019534
0.11562238344290114,1.2762194976590506
0.11682745386983953,1.2830210969283025
0.11804508410302514,1.290011499811319
0.11927540504661872,1.2971968170783508
0.12051854896912538,1.3045833848823214
0.12177464951761428,1.3121777730481263
0.1230438417320866,1.3199867935143927
0.12432626205999352,1.328017508899021
0.12562204837090518,1.3362772411529258
0.1269313399713327,1.3447735802583665
0.1282542776197047,1.353514392918886
0.12959100354149974,1.3625078311768632
0.13094166144453678,1.3717623408820008
0.13230639653442458,1.381286669919242
0.1336853555301726,1.3910898760874024
0.1350786866799643,1.4011813344998802
0.13648653977709485,1.4115707443556877
0.13790906617607496,1.4222681349023734
0.13934641880890278,1.433283870381461
0.14079875220150495,1.444628653711418
0.1422662224903496,1.456313528622037
0.14374898743923184,1.4683498799067591
0.14524720645623476,1.4807494314049803
0.14676104061086678,1.4935242412638432
0.14829065265137792,1.506686693957182
0.14983620702225647,1.5202494884572115
0.15139786988190776,1.5342256218604673
0.15297580912051764,1.5486283676625825
0.15457019437810182,1.5634712477544426
0.15618119706274342,1.5787679970740895
0.1578089903690204,1.5945325196923434
0.15945374929662567,1.6107788349338992
0.1611156506691805,1.627521011937979
0.16279487315324428,1.6447730908419662
0.16449159727752286,1.662548988526663
0.16620600545227643,1.6808623865921997
0.16793828198893002,1.6997265989393535
0.16968861311988825,1.7191544160132515
0.1714571870185569,1.739157922428137
0.17324419381957254,1.7597482843379064
0.17504982563924393,1.7809355025556028
0.17687427659620544,1.8027281270677389
0.17871774283228653,1.8251329282532267
0.18058042253359824,1.8481545198250633
0.18246251595183974,1.8717949282973487
0.18436422542582687,1.8960531036822041
0.186285755403245,1.920924366194331
0.18822731246262864,1.9463997840534721
0.19018910533557024,1.9724654781113735
0.19217134492916024,1.9991018500930988
0.19417424434866126,2.0262827328547792
0.1961980189204183,2.0539744633626458
0.19824288621500796,2.0821348822480785
0.200309066070629,2.110712267957922
0.2023967806167365,2.1396442188630447
0.20450625429792224,2.1688565033563862
0.20663771389804436,2.1982619060631685
0.20879138856460802,2.227759107815393
0.21096750983340085,2.257231647894693
0.2131663116533842,2.286547028917189
0.21538803041184484,2.315556037063097
0.21763290495980814,2.344092362267781
0.21990117663771616,2.3719726132448478
0.22219308930137388,2.398996829173103
0.22450888934816493,2.4249495915588946
0.2268488257435418,2.4496018339548664
0.22921315004779072,2.4727134316279993
0.23160211644307688,2.494036625998857
0.23401598176077051,2.5133202985700462
0.23645500550905815,2.5303150562723484
0.23891944990084188,2.544779026630746
0.24140957988192877,2.556484191001253
0.24392566315951492,2.5652230136876377
0.24646797023096556,2.570815062198197
0.2490367744128958,2.5731132683787026
0.251632351870554,2.5720094603739443
0.25425498164751154,2.5674388079604777
0.25690494569566225,2.559382871710897
0.25958252890553396,2.5478710278202623
0.2622880191369165,2.5329801482494565
0.26502170724980895,2.514832538729635
0.26778388713568874,2.493592261072418
0.27057485574910767,2.4694600767730077
0.27339491313961634,2.4426673338469946
0.2762443624840215,2.4134691700850537
0.27912351011898046,2.3821374204958787
0.2820326655739338,2.348953596847863
0.28497214160438245,2.3142022593069633
0.2879422542255111,2.2781650331856382
0.29094332274616214,2.241115447562098
0.2939756698031638,2.203314696042324
0.2970396213960156,2.1650083504091064
0.3001355069219362,2.126424000129632
0.30326365921127557,2.087769747055073
0.30642441456329705,2.0492334554451945
0.3096181127823317,2.01098264145856
0.3128450972143099,1.9731648812949876
0.3161057147836737,1.9359086206806382
0.3194003160306731,1.8993242777666974
0.3227292551490526,1.8635055444581428
0.3260928900241288,1.8285308058038947
0.3294915822712663,1.7944646119272147
0.3329256972747537,1.761359151059097
0.33639560422708514,1.7292556849372207
0.339901676168651,1.6981859188300137
0.343444290027843,1.6681732876414261
0.34702382666157616,1.6392341470013916
0.350640670896234,1.6113788640972222
0.3542952115690403,1.5846128074499402
0.35798784156986174,1.558937238102211
0.3617189578834464,1.534350106973028
0.36548896163210265,1.5108467646450057
0.3692982581188229,1.4884205907559558
0.37314725687085637,1.4670635506150438
0.3770363716837361,1.4467666867779547
0.38096602066576557,1.4275205531940713
0.3849366262829681,1.4093155992603001
0.38894861540450454,1.3921425107419314
0.39300241934856583,1.3759925140969904
0.3970984739287421,1.3608576503018546
0.4012372195008762,1.3467310238475534
0.4054191010104048,1.3336070321764677
0.40964456804019367,1.3214815804708233
0.41391407485887105,1.3103522863961732
0.4182280804696645,1.3002186791509804
0.42258704865974756,1.2910823969815772
0.4269914480501003,1.2829473871930266
0.43144175214588887,1.2758201126231277
0.4359384393873713,1.2697097685511123
0.4404819932013335,1.2646285140865963
0.4450729020530607,1.2605917222306657
0.4497116594988511,1.2576182530223676
0.4543987642390771,1.255730754483448
0.4591347201717991,1.2549559964551746
0.463920036446938,1.2553252428864259
0.46875522752101295,1.2568746686833618
0.4736408132124489,1.259645827867916
0.47857731875746073,1.2636861805098427
0.4835652748665206,1.269049686683868
0.4886052177814126,1.27579747653638
0.49369768933288305,1.2839986063843833
0.49884323699889077,1.2937309115444904
0.5040424139634657,1.305081967190799
0.5092957791761797,1.318150168792365
0.5146038974122378,1.3330459433114523
0.5199673393331956,1.3498931009345352
0.5253866815483103,1.3688303340222605
0.5308625066765288,1.3900128642378686
0.5363954034091255,1.4136142289942473
0.5419859665729893,1.4398281822705017
0.5476347971945729,1.4688706592387855
0.5533425025645066,1.5009817141791322
0.5591096963028873,1.536427279705001
0.5649369984252472,1.5755005019115003
0.5708250354092089,1.6185222655349902
0.5767744402618377,1.6658403140024107
0.5827858525876934,1.7178260614626937
0.5888599186575936,1.7748677479041224
0.5949972914780911,1.8373579556383843
0.6011986308616784,1.9056726348772632
0.6074646034977212,1.9801376454561535
0.6137958830241328,2.0609774472516116
0.6201931500997955,2.1482391741780806
0.6266570924777358,2.2416844890874494
0.633188405079063,2.34064261604204
0.6397877900676788,2.4438231518775835
0.6464559569257645,2.549100321753535
0.6531936225300558,2.653305332971465
0.6600015112289117,2.752101378100244
0.6668803549201887,2.8400569254262487
0.6738308931299236,2.9110475896107664
0.6808538730918386,2.9590575825775667
0.6879500498276747,2.979287347764163
0.6951201862283618,2.969253984545637
0.7023650531360343,2.9294498470388803
0.7096854294269038,2.86325290459499
0.717082102094993,2.7761251246819727
0.7245558663367434,2.6744539640543983
0.7321075256365045,2.564470867736017
0.739737891852915,2.4515243831021847
0.7474477853061835,2.3397613928581076
0.7552380348662774,2.232120972938095
0.7631094780420347,2.130503301660249
0.7710629610712006,2.036000980697399
0.7790993390114057,1.9491245620917306
0.7872194758320893,1.8699914868687817
0.7954242445073836,1.798470917678764
0.8037145271099649,1.7342883745208075
0.812091214905882,1.6770981227726676
0.8205552084503743,1.6265315516748609
0.8291074176846889,1.582228558361069
0.8377487620339037,1.5438573698783156
0.846480170505775,1.511126789283977
0.8553025817906108,1.4837936992765117
0.864216944362188,1.4616678047250007
0.8732242165797187,1.4446149966463173
0.8823253667908828,1.4325603171956356
0.8915213734359314,1.425491247444398
0.9008132251528759,1.4234618878165262
0.9102019208837747,1.4265985264580294
0.9196884699821268,1.4351070731493913
0.9292738923213834,1.4492828601436036
0.9389592184045932,1.4695233616683872
0.9487454894751887,1.4963444401859491
0.9586337576289269,1.530400752496418
0.9686250859269976,1.5725108673756905
0.9787205485103105,1.6236873050991
0.9889212307149735,1.6851707951381585
0.9992282291889727,1.7584659308945962
1.0096426520100719,1.8453708249520562
1.0201656188049384,1.947983890086501
1.030798260869511,2.0686519023161174
1.0415417212906228,2.209787073680951
1.05239715506889,2.3734154709405764
1.0633657292428855,2.560216811289357
1.0744486230146022,2.7677062415719593
1.0856470278762265,2.987264297945282
1.0969621477382319,3.200443444692413
1.1083951990588092,3.377095261061548
1.1199474109746441,3.480588732842009
1.1316200254330568,3.483231835738872
1.1434142973255237,3.383094289611797
1.155331494622585,3.205566791683948
1.1673728985101615,2.987804198067452
1.1795398035272913,2.761981007636275
1.1918335177053025,2.5484784539096874
1.2042553627084367,2.357149876795788
1.216806673975935,2.191094977919792
1.229488800865611,2.049885603813328
1.2423031067989148,1.9315904163909003
1.2552509694075105,1.8338593687613738
1.2683337806813824,1.7544417203189693
1.2815529471184846,1.691404252144005
1.294909889875947,1.6432050085654242
1.3084060449228645,1.6087049922102938
1.3220428631946708,1.5871594915926437
1.335821810749126,1.5782097459432933
1.3497443689239281,1.5818855450568376
1.3638120344959674,1.5986249175193585
1.3780263198422427,1.6293154053158174
1.3923887531024486,1.6753607940792612
1.4069008783432675,1.7387758907918334
1.4215642557243642,1.8223071442797174
1.4363804616661149,1.929562086614367
1.4513510890190855,2.065090219874979
1.4664777472352726,2.2342560099019235
1.4817620625411343,2.4425044085507115
1.4972056781124163,2.6931153273372934
1.5128102542508117,2.9817559258743747
1.5285774685624514,3.2860577506615027
1.5445090161382597,3.553408541276346
1.5606066097361904,3.7056130317165934
1.5768719799653588,3.68394019557217
1.5933068754720972,3.501876479111547
1.6099130631279432,3.2317742007193844
1.626692328219597,2.9461679348380674
1.6436464746408481,2.687133530892276
1.660777325086509,2.47040672979112
1.6780867212483686,2.2979246924635333
1.6955765240131864,2.1664485239271496
1.713248613662751,2.071749070707954
1.7311048900760264,2.0103056784168043
1.7491472729334014,1.9799185584951435
1.7673777019230692,1.9799395878336612
1.7857981369495588,2.0114382734643868
1.8044105583444379,2.0774408272422287
1.8232169670792153,2.1832850323276856
1.8422193849804556,2.3370054542325027
1.8614198549471457,2.549292976513477
1.8808204411703184,2.8314116723421443
1.9004232293549683,3.186272486765472
1.9202303269442804,3.5823799682513466
1.9402438633461963,3.9086276359287475
1.9604659901623414,3.984174560877126
1.980898881419334,3.7358876257264275
2.0015447338025156,3.3049711975869034
2.022405766892106,2.8656055278318866
2.043484223401826,2.4974097875177064
2.0647823694200036,2.2126724320550792
2.0863024946531996,2.0007218012290346
2.108046912672363,1.8477988916357502
2.1300179611615575,1.7427918910089832
2.1522180021692834,1.6781410486451809
2.1746494223624104,1.6495637142082964
2.197314633282766,1.6557306178217321
2.2202160716063903,1.698202682034373
2.243356199405499,1.7816939107940293
2.266737504413171,1.9145720855670445
2.290362500290802,2.1090296284436625
2.3142337268983395,2.3785254658729302
2.3383537505673364,2.7242685060260636
2.3627251643768497,3.0925929932422753
2.3873505884322164,3.3163405987943526
2.412232670146736,3.2144696552679375
2.437374084526279,2.8543877403047158
2.4627775344568814,2.4484337854699416
2.4884457509953153,2.110738521468339
2.514381493662701,1.8602307598553582
2.540587550741177,1.6847951985385279
2.567066739573657,1.5694802160614616
2.59382190686672,1.503462361043278
2.6208559289966447,1.480788645903416
2.648171712318649,1.5000444984641732
2.67577219347934,1.564268903081406
2.703660339732426,1.6812570025914484
2.731839149257717,1.8634529222685028
2.7603116514834554,2.1236778971112162
2.7890809074119916,2.453606337384769
2.8181500099488757,2.7628616787148363
2.8475220842353623,2.8478245415711974
2.877200287984384,2.622018798026161
2.9071878118200334,2.2663545309070203
2.9374878796205746,1.9494296838588825
2.968103748865036,1.7177287114880957
2.9990387109834096,1.5654097851484752
3.0302960917105097,1.478961438310914
3.0618792514435094,1.4495221938617617
3.093791585603209,1.4751670946949094
3.126036524999069,1.5618025132007052
3.1586175361980464,1.7249021532867403
3.191538121897278,1.9910186641735297
3.2248018213006393,2.387188907489151
3.258412210499246,2.8635824310123934
3.292372902855901,3.11067638391375
3.326687549393561,2.8409523054526913
3.3613598391878465,2.3635659230621893
3.3963934997636467,1.9771469567817592
3.4317922974958557,1.725403844954454
3.4675600380142777,1.582049497761919
3.5037005666127725,1.524087625721751
3.5402177686626457,1.54226710797029
3.5771155700303536,1.6414049042600847
3.614397937499566,1.8418671280083336
3.652068879197624,2.1801348314945592
3.6901324450264363,2.6803493960165663
3.728592727097885,3.1893248690221596
3.7674538601737493,3.2312036901299344
3.806720022110225,2.7956092121536664
3.8463954343070745,2.353852523230115
3.8864843621614575,2.0725668788691616
3.9269911155264956,1.9432669708718946
3.9679200491746047,1.947019234779548
4.0092755632656765,2.0897138179494514
4.05106210382012,2.4097608956246312
4.093284163196843,2.9655665785057903
4.135946280576214,3.6561597727274133
4.179053042448059,3.7907324875440893
4.222609083104739,3.1782207746742523
4.26661908513937,2.5827196528975787
4.311087779949242,2.2360303368642818
4.356019948244473,2.0997733480255514
4.401420420561975,2.144381208088395
4.447294077784768,2.3908319649226324
4.493645851666711,2.917989709355314
4.5404807253627055,3.758994836982737
4.587803733964414,4.207685448079034
4.635619965041576,3.509786574242871
4.683934559188957,2.7485922505714337
4.7327527105790015,2.332994466808716
4.782079667520239,2.192192038583329
4.831920733021524,2.2814189227938435
4.882281265362134,2.6258921237100754
4.933166678667843,3.237302774409404
4.984582443492966,3.6073859868852476
5.036534087408489,3.0367023220632983
5.08902719559632,2.346753624532548
5.142067411449739,1.9559727606219224
5.195660437180108,1.81190290649095
5.249812034429887,1.8715733744287046
5.30452802489207,2.157616315713472
5.35981429093605,2.6844780275776388
5.4156767762400175,2.9487215454457907
5.472121486429951,2.3749618041183043
5.529154489725263,1.7965858053115475
5.5867819175911855,1.491079376715632
5.645009965397932,1.3854806403261057
5.703844893086764,1.4422442132657838
5.763293025842969,1.6878414154508168
5.823360754775865,2.185306605200256
5.884054537605896,2.6526585402339697
5.945380899358879,2.3143939029054947
6.007346433067498,1.8132380015380087
6.069957800480093,1.5734076043585865
6.13322173277686,1.5649072883444168
6.197145031293493,1.79185149378272
6.261734568252381,2.3137154375197078
6.3269972875014195,2.7427523622796883
6.392940205260531,2.2629448299989647
6.459570410875946,1.7511776326066257
6.5268950675823785,1.5447772220763971
6.594921413273114,1.5904213039107615
6.663656761278137,1.9203095995972725
6.733108501150373,2.6127728349020547
6.803284099460113,2.89062251750798
6.874191100597731,2.2300469108149534
6.945837127584748,1.812908141913799
7.018229882893382,1.7500918989488725
7.091377149274607,2.021940773133027
7.165286790594859,2.737646301320342
7.239966752681458,3.380783246979192
7.3154250641768455,2.8273009057598983
7.3916698374017225,2.3860049195763278
7.468709269227171,2.4668527693514988
7.546551641955899,3.1650168071053404
7.625205324212635,3.985199877701832
7.704678771843816,3.0703726306676993
7.784980528826658,2.336773387842069
7.866119228187696,2.226307549613815
7.948103592930895,2.6704327027463113
8.030942436975428,3.503520029829844
8.114644666103258,3.013870653696062
8.199219278916559,2.2488520653490967
8.284675367805134,2.0715525712057694
8.371022119923914,2.426257995703449
8.458268818180654,3.209680551373554
8.546424842233888,2.8726746419543696
8.635499669501339,2.1653915494554354
8.725502876178803,2.0337817900686246
8.816444138269645,2.486246979053574
8.908333232625063,3.3277893984005673
9.001180037995152,2.667417457401967
9.094994536090958,2.0075056025140534
9.189786812657562,1.9665570913001125
9.2855670585584,2.5161193194328515
9.382345570870834,3.2951745526601095
9.480132753993178,2.6973093022888586
9.578939120763232,2.3053486729473036
9.678775293588501,2.6545941240885704
9.77965200558818,3.81158777681367
9.881580101747025,3.6054098487971653
9.9845705400813,2.87688418944416
10.088634392816829,3.1700726064004785
10.193782847579312,4.442417341194648
10.300027208597147,3.8627979328295785
10.40737889791663,3.074608062816647
10.515849456629995,3.479738940017605
10.625450546116085,4.175568326364187
10.73619394929411,3.0696436942018863
10.848091571890334,2.6771729080919053
10.961155443718056,3.3329460408900338
11.075397719970933,3.392891741556708
11.190830682529677,2.314434369306451
11.307466741282536,2.166958008102857
11.42531843545936,2.8843632420312733
11.544398434979747,2.9184678351215023
11.664719541815074,2.148465891444849
11.786294691364839,2.2619330845203263
11.90913695384734,3.049240239456366
12.033259535704746,2.4286976038491326
12.158675781022971,2.021937540886573
12.285399172966173,2.5704682399426293
12.413443335226388,3.3204573994194533
12.542822033488084,2.503402498394961
12.673549176908123,2.6382247212728167
12.805638819611124,3.74764655013684
12.939105162200294,3.168262776329399
13.073962553284213,3.13071609552373
13.210225491019296,3.983242038822042
13.347908624668563,2.8684188870845966
13.487026756176448,2.715117755130918
13.627594841760157,3.642930380748818
13.76962799351761,2.8220138416906737
13.913141481052007,2.638162808725424
14.058150733113536,3.420376244778094
14.204671339257954,2.556257769920299
14.35271905152271,2.4641398706515583
14.502309786120284,3.275220288205901
14.653459625149353,2.3724891916957076
14.806184818323773,2.3303229461188586
14.96050178471944,3.3709453137612693
15.116427114539581,2.8957665011960634
15.2739775708982,3.266241419552854
15.433170091622358,3.9199093591111422
15.594021791073004,3.233342876157634
15.756549961984945,4.092455639303626
15.920772077325985,3.2314309431417167
16.086705792175287,3.343990920466735
16.25436894562155,3.398762328500089
16.423779562680732,2.743786853750491
16.594955856233913,3.232703075757893
16.76791622898537,2.1735986212708536
16.94267927544089,2.306953343670987
17.11926378390693,2.5602396154339697
17.29768873851038,2.0305335999477396
17.477973321239634,2.714176407705566
17.660136914006653,2.205057715244633
17.84419910073074,2.5602908688127166
18.03017966944399,2.598950757591806
18.21809861441853,2.4295486272011084
18.40797613831619,2.7606312517183675
18.5998326543603,2.342621952301863
18.793688788530396,2.5424649646033175
18.98956538177955,1.8849667788054738
19.187483492274954,2.331379182661152
19.387464397661915,1.6836807195153913
19.589529597351213,2.0085186274904054
19.79370081483058,1.554587066122087
20.000000000000004,1.78760875314385
